2.618223788886098E-6,1.8568485756986775E-5,1.2946909009770025E-5,
5.198133749217959E-6,1.2327621334407013E-5,1.4998947335698176E-5,
5.3441062846104614E-6,1.6345657058991492E-5,2.0954310457454994E-5,
6.674626092717517E-6,1.2794100257451646E-5,2.280891567352228E-5,
8.000980415090453E-6,9.698608664621133E-6,2.6011983209173195E-5,
9.250852599507198E-6,1.6483318177051842E-5,3.1338950066128746E-5,
1.2173842151241843E-5,9.067211976798717E-6,3.0084940590313636E-5,
1.442679604224395E-5,1.1781111425079871E-5,4.240411726641469E-5,
1.8003331206273288E-5,2.5333732992294244E-5,6.371548806782812E-5,
1.78889404196525E-5,2.4588152882643044E-5,6.126135849626735E-5,
1.9603990949690342E-5,3.0945579055696726E-5,7.679249392822385E-5,
2.3660417355131358E-5,2.6855805117520504E-5,7.588142034364864E-5,
3.103301060036756E-5,4.3309682951075956E-5,9.616006718715653E-5,
2.941758793895133E-5,3.586984894354828E-5,9.324055281467736E-5,
3.948005542042665E-5,3.9868005842436105E-5,1.0567028948571533E-4,
4.578699736157432E-5,5.238831727183424E-5,1.2748684093821794E-4,
5.1775270549114794E-5,6.072785981814377E-5,1.314956898568198E-4,
6.156213203212246E-5,7.012450805632398E-5,1.3106781989336014E-4,
6.880428554723039E-5,8.026639989111573E-5,1.4633445243816823E-4,
8.411188900936395E-5,1.0935253521893173E-4,1.6843763296492398E-4,
9.814349323278293E-5,1.2279272777959704E-4,1.646939927013591E-4,
1.078777204384096E-4,1.359216112177819E-4,1.791636022971943E-4,
1.2798735406249762E-4,1.798987650545314E-4,1.8990112585015595E-4,
1.5622896899003536E-4,2.45903676841408E-4,2.478962705936283E-4,
1.7242282046936452E-4,2.705517108552158E-4,2.6034447364509106E-4,
2.0748010138049722E-4,3.4924817737191916E-4,3.380830748938024E-4,
2.29850149480626E-4,3.877083654515445E-4,3.681283269543201E-4,
2.715033770073205E-4,4.904457600787282E-4,5.324034718796611E-4,
3.209407441318035E-4,6.065214984118938E-4,8.038574596866965E-4,
3.559151664376259E-4,6.860081921331584E-4,9.076177957467735E-4,
4.113395407330245E-4,7.941725198179483E-4,0.0013706550234928727,
4.7845306107774377E-4,9.064252953976393E-4,0.002116755349561572,
5.291191046126187E-4,0.0010122752282768488,0.002418656600639224,
6.138735334388912E-4,0.0011446387507021427,0.003441649954766035,
7.139715598896146E-4,0.0012430386850610375,0.004908575676381588,
7.857971941120923E-4,0.001369503210298717,0.0055875228717923164,
9.044629405252635E-4,0.0013424487551674247,0.007398727349936962,
0.001042669638991356,0.0010293402010574937,0.009172823280096054,
0.0011429711012169719,0.001106140436604619,0.010358395986258984,
0.0012964147608727217,6.197095499373972E-4,0.012267669662833214,
0.0014182677259668708,5.496404482983053E-4,0.013827021233737469,
0.00164092518389225,-1.9312271615490317E-4,0.01635775715112686,
0.0018703152891248465,-0.0011004074476659298,0.018868474289774895,
0.0020332331769168377,-0.0014669864904135466,0.020949646830558777,
0.0022785223554819822,-0.0026067744474858046,0.023173362016677856,
0.002569617470726371,-0.0038800633046776056,0.02526692859828472,
0.0028467795345932245,-0.004778251051902771,0.028211431577801704,
0.00324888969771564,-0.006447517778724432,0.030681369826197624,
0.00371092208661139,-0.008433069102466106,0.03331920504570007,
0.004087020643055439,-0.009990123100578785,0.03638974577188492,
0.004620910622179508,-0.012163783423602581,0.03882313147187233,
0.005274648312479258,-0.0141486506909132,0.04231107980012894,
0.005908714607357979,-0.01669994741678238,0.04638677090406418,
0.006780844647437334,-0.019244130700826645,0.0505521185696125,
0.007497739978134632,-0.02184663712978363,0.05460194870829582,
0.00850402656942606,-0.024456150829792023,0.05889999121427536,
0.009489635936915874,-0.026802798733115196,0.06269096583127975,
0.010272491723299026,-0.029326189309358597,0.06638999283313751,
0.011341514065861702,-0.03160669654607773,0.06978348642587662,
0.01242481917142868,-0.03384339064359665,0.0730188861489296,
0.013441064395010471,-0.03655132278800011,0.07659218460321426,
0.014668376184999943,-0.03881542384624481,0.07929257303476334,
0.016258884221315384,-0.041582513600587845,0.08318231999874115,
0.017774468287825584,-0.04467792809009552,0.08712548017501831,
0.01971185766160488,-0.047643620520830154,0.09102363884449005,
0.02193313091993332,-0.05068691447377205,0.09485357254743576,
0.02405816689133644,-0.05396446958184242,0.09879794716835022,
0.026693446561694145,-0.05667775869369507,0.10194851458072662,
0.02956228144466877,-0.05929863080382347,0.10472778230905533,
0.032676827162504196,-0.0627492144703865,0.10875984281301498,
0.03631269186735153,-0.06519203633069992,0.11146201193332672,
0.03997397795319557,-0.06719577312469482,0.11335643380880356,
0.04363024979829788,-0.06953206658363342,0.11572258174419403,
0.04741678386926651,-0.07057206332683563,0.11615532636642456,
0.051281772553920746,-0.07199805974960327,0.11726892739534378,
0.0558258593082428,-0.07257982343435287,0.11720449477434158,
0.06094596907496452,-0.0730186477303505,0.1160336434841156,
0.06573601812124252,-0.07317952066659927,0.11564084142446518,
0.07108364254236221,-0.07244470715522766,0.11299609392881393,
0.07633201777935028,-0.07095304876565933,0.109702929854393,
0.08130396157503128,-0.0693078562617302,0.10644815117120743,
0.08689859509468079,-0.066340871155262,0.10020019114017487,
0.09244757145643234,-0.06311652809381485,0.0939016193151474,
0.09825577586889267,-0.05972178652882576,0.08730722218751907,
0.10436001420021057,-0.05596382915973663,0.07957343757152557,
0.11054065078496933,-0.051854442805051804,0.07185728847980499,
0.11673767864704132,-0.04756596311926842,0.06401018053293228,
0.12282730638980865,-0.04308292642235756,0.05566736310720444,
0.12864448130130768,-0.038068268448114395,0.046155743300914764,
0.13346251845359802,-0.03347079083323479,0.03869512677192688,
0.1376415491104126,-0.029033340513706207,0.031151331961154938,
0.14093896746635437,-0.025284795090556145,0.024952111765742302,
0.1436455398797989,-0.022175874561071396,0.020151641219854355,
0.145872563123703,-0.019069483503699303,0.015944214537739754,
0.1474703997373581,-0.01651431806385517,0.013223625719547272,
0.1485815942287445,-0.015291668474674225,0.012148352339863777,
0.1490098088979721,-0.014509073458611965,0.012622438371181488,
0.14856930077075958,-0.014897733926773071,0.014766048640012741,
0.1475568264722824,-0.016181590035557747,0.018137961626052856,
0.14619530737400055,-0.019502416253089905,0.02118309587240219,
0.1448393017053604,-0.02249709516763687,0.027282794937491417,
0.14335712790489197,-0.02662632241845131,0.03390059247612953,
0.14269550144672394,-0.03164581209421158,0.04117410257458687,
0.14279904961585999,-0.03766408562660217,0.050200577825307846,
0.1432173103094101,-0.04521004110574722,0.06019468605518341,
0.14326919615268707,-0.05515909194946289,0.07321994751691818,
0.14473477005958557,-0.06411112844944,0.0875016450881958,
0.14775514602661133,-0.0759349912405014,0.09944798797369003,
0.15142513811588287,-0.08684603869915009,0.11009592562913895,
0.1547221690416336,-0.10129595547914505,0.0997781828045845,
0.16029204428195953,-0.11070936918258667,0.08241784572601318,
0.16778410971164703,-0.11609718948602676,0.04522158205509186,
0.17366214096546173,-0.11940091848373413,-0.07278461009263992,
0.18271565437316895,-0.10861927270889282,-0.15514282882213593,
0.1932612508535385,-0.07099415361881256,-0.21859118342399597,
0.20182335376739502,-0.025658687576651573,-0.27781376242637634,
0.20484274625778198,0.07405003160238266,-0.3636692464351654,
0.21108883619308472,0.15736153721809387,-0.3571683168411255,
0.21812883019447327,0.27146682143211365,-0.20186173915863037,
0.21248388290405273,0.46721380949020386,0.055954210460186005,
0.21016086637973785,0.6853045225143433,0.3953407108783722,
